# Wavelength, Molecular Absorption, Ozone, Rayleigh Scattering, Aerosol Extinction
3.000000000e+02	5.234859750e-01	1.709986077e-02	1.474261547e-01	4.907498285e-01
3.000150004e+02	5.701334659e-01	1.866878633e-02	1.605801465e-01	5.344802230e-01
3.000300015e+02	6.158209654e-01	2.021739095e-02	1.734678178e-01	5.773106589e-01
3.000450034e+02	6.599521810e-01	2.172683930e-02	1.859214596e-01	6.186821330e-01
3.000600060e+02	7.019932538e-01	2.318011260e-02	1.977908696e-01	6.580941713e-01
3.000750094e+02	7.414917981e-01	2.456261096e-02	2.089487088e-01	6.951226778e-01
3.000900135e+02	7.780906777e-01	2.586259576e-02	2.192943817e-01	7.294328499e-01
3.001050184e+02	8.115358850e-01	2.707145174e-02	2.287562578e-01	7.607865643e-01
3.001200240e+02	8.416783935e-01	2.818376445e-02	2.372922008e-01	7.890441138e-01
3.001350304e+02	8.684703415e-01	2.919722308e-02	2.448885032e-01	8.141606299e-01
3.001500375e+02	8.919563165e-01	3.011237217e-02	2.515574444e-01	8.361779116e-01
3.001650454e+02	9.122608163e-01	3.093224478e-02	2.573337722e-01	8.552126714e-01
3.001800540e+02	9.295731412e-01	3.166191536e-02	2.622704621e-01	8.714423718e-01
3.001950634e+02	9.441310132e-01	3.230801183e-02	2.664341166e-01	8.850898686e-01
3.002100735e+02	9.562041410e-01	3.287822432e-02	2.699003487e-01	8.964080045e-01
3.002250844e+02	9.660787771e-01	3.338084233e-02	2.727494433e-01	9.056651311e-01
3.002400960e+02	9.740440709e-01	3.382434500e-02	2.750625211e-01	9.131323160e-01
3.002551084e+02	9.803807528e-01	3.421706090e-02	2.769183583e-01	9.190727340e-01
3.002701215e+02	9.853524126e-01	3.456690521e-02	2.783909339e-01	9.237334916e-01
3.002851354e+02	9.891993959e-01	3.488119525e-02	2.795477120e-01	9.273399042e-01
3.003001501e+02	9.921351428e-01	3.516653863e-02	2.804486113e-01	9.300920644e-01
3.003151654e+02	9.943446545e-01	3.542878476e-02	2.811455717e-01	9.321634045e-01
3.003301816e+02	9.959846906e-01	3.567302721e-02	2.816826076e-01	9.337008811e-01
3.003451985e+02	9.971852673e-01	3.590364403e-02	2.820962272e-01	9.348263798e-01
3.003602161e+02	9.980520412e-01	3.612436316e-02	2.824161002e-01	9.356389501e-01
3.003752345e+02	9.986692059e-01	3.633834160e-02	2.826658704e-01	9.362175205e-01
3.003902536e+02	9.991025929e-01	3.654824887e-02	2.828640260e-01	9.366238056e-01
3.004052735e+02	9.994027370e-01	3.675634765e-02	2.830247600e-01	9.369051803e-01
3.004202941e+02	9.996077415e-01	3.696456672e-02	2.831587740e-01	9.370973649e-01
3.004353155e+02	9.997458360e-01	3.717456311e-02	2.832739970e-01	9.372268237e-01
3.004503377e+02	9.998375781e-01	3.738777241e-02	2.833762033e-01	9.373128287e-01
3.004653606e+02	9.998976872e-01	3.760544744e-02	2.834695274e-01	9.373691789e-01
3.004803842e+02	9.999365283e-01	3.782868642e-02	2.835568808e-01	9.374055910e-01
3.004954086e+02	9.999612810e-01	3.805845222e-02	2.836402803e-01	9.374287958e-01
3.005104337e+02	9.999768382e-01	3.829558485e-02	2.837211004e-01	9.374433801e-01
3.005254596e+02	9.999864814e-01	3.854080901e-02	2.838002628e-01	9.374524203e-01
3.005404863e+02	9.999923765e-01	3.879473893e-02	2.838783760e-01	9.374579467e-01
3.005555137e+02	9.999959307e-01	3.905788164e-02	2.839558354e-01	9.374612786e-01
3.005705418e+02	9.999980440e-01	3.933064004e-02	2.840328937e-01	9.374632598e-01
3.005855707e+02	9.999992833e-01	3.961331654e-02	2.841097103e-01	9.374644216e-01
3.006006004e+02	1.000000000e+00	3.990611777e-02	2.841863838e-01	9.374650935e-01
3.006156308e+02	1.000000000e+00	4.020914736e-02	2.842628596e-01	9.374650935e-01
3.006306620e+02	1.000000000e+00	4.052245708e-02	2.843393392e-01	9.374650935e-01
3.006456939e+02	1.000000000e+00	4.084600175e-02	2.844158226e-01	9.374650935e-01
3.006607265e+02	1.000000000e+00	4.117966906e-02	2.844923097e-01	9.374650935e-01
3.006757599e+02	1.000000000e+00	4.152328665e-02	2.845688005e-01	9.374650935e-01
3.006907941e+02	1.000000000e+00	4.187662911e-02	2.846452951e-01	9.374650935e-01
3.007058290e+02	1.000000000e+00	4.223942457e-02	2.847217934e-01	9.374650935e-01
3.007208647e+02	1.000000000e+00	4.261136066e-02	2.847982954e-01	9.374650935e-01
3.007359011e+02	1.000000000e+00	4.299208985e-02	2.848748012e-01	9.374650935e-01
3.007509383e+02	1.000000000e+00	4.338123440e-02	2.849513107e-01	9.374650935e-01
3.007659762e+02	1.000000000e+00	4.377839091e-02	2.850278239e-01	9.374650935e-01
3.007810149e+02	1.000000000e+00	4.418313464e-02	2.851043409e-01	9.374650935e-01
3.007960543e+02	1.000000000e+00	4.459502361e-02	2.851808615e-01	9.374650935e-01
3.008110945e+02	1.000000000e+00	4.501360246e-02	2.852573859e-01	9.374650935e-01
3.008261354e+02	1.000000000e+00	4.543840593e-02	2.853339139e-01	9.374650935e-01
3.008411771e+02	1.000000000e+00	4.586896177e-02	2.854104457e-01	9.374650935e-01
3.008562195e+02	1.000000000e+00	4.630479261e-02	2.854869811e-01	9.374650935e-01
3.008712627e+02	1.000000000e+00	4.674541660e-02	2.855635203e-01	9.374650935e-01
3.008863067e+02	1.000000000e+00	4.719034655e-02	2.856400631e-01	9.374650935e-01
3.009013514e+02	1.000000000e+00	4.763908746e-02	2.857166096e-01	9.374650935e-01
3.009163968e+02	1.000000000e+00	4.809113247e-02	2.857931598e-01	9.374650935e-01
3.009314430e+02	1.000000000e+00	4.854595762e-02	2.858697136e-01	9.374650935e-01
3.009464899e+02	1.000000000e+00	4.900301606e-02	2.859462712e-01	9.374650935e-01
3.009615376e+02	1.000000000e+00	4.946173231e-02	2.860228324e-01	9.374650935e-01
3.009765861e+02	1.000000000e+00	4.992149757e-02	2.860993972e-01	9.374650935e-01
3.009916353e+02	1.000000000e+00	5.038166721e-02	2.861759657e-01	9.374650935e-01
3.010066853e+02	1.000000000e+00	5.084156106e-02	2.862525379e-01	9.374650935e-01
3.010217360e+02	1.000000000e+00	5.130046740e-02	2.863291137e-01	9.374650935e-01
3.010367874e+02	1.000000000e+00	5.175765105e-02	2.864056932e-01	9.374650935e-01
3.010518396e+02	1.000000000e+00	5.221236538e-02	2.864822762e-01	9.374650935e-01
3.010668926e+02	1.000000000e+00	5.266386787e-02	2.865588630e-01	9.374650935e-01
3.010819463e+02	1.000000000e+00	5.311143837e-02	2.866354533e-01	9.374650935e-01
3.010970008e+02	1.000000000e+00	5.355439864e-02	2.867120473e-01	9.374650935e-01
3.011120560e+02	1.000000000e+00	5.399213176e-02	2.867886449e-01	9.374650935e-01
3.011271120e+02	1.000000000e+00	5.442409949e-02	2.868652462e-01	9.374650935e-01
3.011421687e+02	1.000000000e+00	5.484985620e-02	2.869418510e-01	9.374650935e-01
3.011572262e+02	1.000000000e+00	5.526905786e-02	2.870184595e-01	9.374650935e-01
3.011722845e+02	1.000000000e+00	5.568146486e-02	2.870950716e-01	9.374650935e-01
3.011873435e+02	1.000000000e+00	5.608693832e-02	2.871716872e-01	9.374650935e-01
3.012024032e+02	1.000000000e+00	5.648542986e-02	2.872483065e-01	9.374650935e-01
3.012174637e+02	1.000000000e+00	5.687696533e-02	2.873249293e-01	9.374650935e-01
3.012325249e+02	1.000000000e+00	5.726162387e-02	2.874015558e-01	9.374650935e-01
3.012475870e+02	1.000000000e+00	5.763951363e-02	2.874781858e-01	9.374650935e-01
3.012626497e+02	1.000000000e+00	5.801074640e-02	2.875548194e-01	9.374650935e-01
3.012777132e+02	1.000000000e+00	5.837541288e-02	2.876314566e-01	9.374650935e-01
3.012927775e+02	1.000000000e+00	5.873356091e-02	2.877080974e-01	9.374650935e-01
3.013078425e+02	1.000000000e+00	5.908517822e-02	2.877847417e-01	9.374650935e-01
3.013229083e+02	1.000000000e+00	5.943018127e-02	2.878613896e-01	9.374650935e-01
3.013379748e+02	1.000000000e+00	5.976841097e-02	2.879380411e-01	9.374650935e-01
3.013530421e+02	1.000000000e+00	6.009963567e-02	2.880146961e-01	9.374650935e-01
3.013681101e+02	1.000000000e+00	6.042356112e-02	2.880913547e-01	9.374650935e-01
3.013831789e+02	1.000000000e+00	6.073984667e-02	2.881680168e-01	9.374650935e-01
3.013982484e+02	1.000000000e+00	6.104812624e-02	2.882446824e-01	9.374650935e-01
3.014133187e+02	1.000000000e+00	6.134803264e-02	2.883213516e-01	9.374650935e-01
3.014283897e+02	1.000000000e+00	6.163922331e-02	2.883980244e-01	9.374650935e-01
3.014434615e+02	1.000000000e+00	6.192140556e-02	2.884747006e-01	9.374650935e-01
3.014585341e+02	1.000000000e+00	6.219435977e-02	2.885513804e-01	9.374650935e-01
3.014736074e+02	1.000000000e+00	6.245795889e-02	2.886280637e-01	9.374650935e-01
3.014886814e+02	1.000000000e+00	6.271218328e-02	2.887047506e-01	9.374650935e-01
3.015037563e+02	1.000000000e+00	6.295713008e-02	2.887814409e-01	9.374650935e-01
3.015188318e+02	1.000000000e+00	6.319301695e-02	2.888581348e-01	9.374650935e-01
3.015339081e+02	1.000000000e+00	6.342018030e-02	2.889348321e-01	9.374650935e-01
3.015489852e+02	1.000000000e+00	6.363906871e-02	2.890115330e-01	9.374650935e-01
3.015640630e+02	1.000000000e+00	6.385023209e-02	2.890882374e-01	9.374650935e-01
3.015791416e+02	1.000000000e+00	6.405430803e-02	2.891649452e-01	9.374650935e-01
3.015942210e+02	1.000000000e+00	6.425200618e-02	2.892416565e-01	9.374650935e-01
3.016093010e+02	1.000000000e+00	6.444409196e-02	2.893183714e-01	9.374650935e-01
3.016243819e+02	1.000000000e+00	6.463137059e-02	2.893950897e-01	9.374650935e-01
3.016394635e+02	1.000000000e+00	6.481467236e-02	2.894718115e-01	9.374650935e-01
3.016545458e+02	1.000000000e+00	6.499483975e-02	2.895485367e-01	9.374650935e-01
3.016696289e+02	1.000000000e+00	6.517271695e-02	2.896252654e-01	9.374650935e-01
3.016847128e+02	1.000000000e+00	6.534914176e-02	2.897019976e-01	9.374650935e-01
3.016997974e+02	1.000000000e+00	6.552493986e-02	2.897787333e-01	9.374650935e-01
3.017148828e+02	1.000000000e+00	6.570092130e-02	2.898554724e-01	9.374650935e-01
3.017299689e+02	1.000000000e+00	6.587787858e-02	2.899322149e-01	9.374650935e-01
3.017450558e+02	1.000000000e+00	6.605658575e-02	2.900089609e-01	9.374650935e-01
3.017601434e+02	1.000000000e+00	6.623779791e-02	2.900857104e-01	9.374650935e-01
3.017752318e+02	1.000000000e+00	6.642225073e-02	2.901624633e-01	9.374650935e-01
3.017903209e+02	1.000000000e+00	6.661065927e-02	2.902392196e-01	9.374650935e-01
3.018054108e+02	1.000000000e+00	6.680371568e-02	2.903159793e-01	9.374650935e-01
3.018205015e+02	1.000000000e+00	6.700208560e-02	2.903927425e-01	9.374650935e-01
3.018355929e+02	1.000000000e+00	6.720640308e-02	2.904695091e-01	9.374650935e-01
3.018506850e+02	1.000000000e+00	6.741726436e-02	2.905462791e-01	9.374650935e-01
3.018657779e+02	1.000000000e+00	6.763522049e-02	2.906230525e-01	9.374650935e-01
3.018808716e+02	1.000000000e+00	6.786076963e-02	2.906998294e-01	9.374650935e-01
3.018959660e+02	1.000000000e+00	6.809434939e-02	2.907766096e-01	9.374650935e-01
3.019110612e+02	1.000000000e+00	6.833632999e-02	2.908533933e-01	9.374650935e-01
3.019261571e+02	1.000000000e+00	6.858700899e-02	2.909301803e-01	9.374650935e-01
3.019412538e+02	1.000000000e+00	6.884660812e-02	2.910069708e-01	9.374650935e-01
3.019563513e+02	1.000000000e+00	6.911527303e-02	2.910837646e-01	9.374650935e-01
3.019714494e+02	1.000000000e+00	6.939307618e-02	2.911605618e-01	9.374650935e-01
3.019865484e+02	1.000000000e+00	6.968002320e-02	2.912373624e-01	9.374650935e-01
3.020016481e+02	1.000000000e+00	6.997606259e-02	2.913141663e-01	9.374650935e-01
3.020167486e+02	1.000000000e+00	7.028109857e-02	2.913909737e-01	9.374650935e-01
3.020318498e+02	1.000000000e+00	7.059500652e-02	2.914677844e-01	9.374650935e-01
3.020469517e+02	1.000000000e+00	7.091765013e-02	2.915445985e-01	9.374650935e-01
3.020620545e+02	1.000000000e+00	7.124889924e-02	2.916214159e-01	9.374650935e-01
3.020771580e+02	1.000000000e+00	7.158864747e-02	2.916982367e-01	9.374650935e-01
3.020922622e+02	1.000000000e+00	7.193682833e-02	2.917750608e-01	9.374650935e-01
3.021073672e+02	1.000000000e+00	7.229342873e-02	2.918518883e-01	9.374650935e-01
3.021224729e+02	1.000000000e+00	7.265849878e-02	2.919287191e-01	9.374650935e-01
3.021375794e+02	1.000000000e+00	7.303215726e-02	2.920055533e-01	9.374650935e-01
3.021526867e+02	1.000000000e+00	7.341459238e-02	2.920823908e-01	9.374650935e-01
3.021677947e+02	1.000000000e+00	7.380605719e-02	2.921592316e-01	9.374650935e-01
3.021829035e+02	1.000000000e+00	7.420686038e-02	2.922360757e-01	9.374650935e-01
3.021980130e+02	1.000000000e+00	7.461735271e-02	2.923129232e-01	9.374650935e-01
3.022131233e+02	1.000000000e+00	7.503791001e-02	2.923897740e-01	9.374650935e-01
3.022282343e+02	1.000000000e+00	7.546891388e-02	2.924666281e-01	9.374650935e-01
3.022433461e+02	1.000000000e+00	7.591073136e-02	2.925434855e-01	9.374650935e-01
3.022584586e+02	1.000000000e+00	7.636369471e-02	2.926203463e-01	9.374650935e-01
3.022735719e+02	1.000000000e+00	7.682808307e-02	2.926972103e-01	9.374650935e-01
3.022886860e+02	1.000000000e+00	7.730410677e-02	2.927740776e-01	9.374650935e-01
3.023038008e+02	1.000000000e+00	7.779189537e-02	2.928509482e-01	9.374650935e-01
3.023189164e+02	1.000000000e+00	7.829149002e-02	2.929278221e-01	9.374650935e-01
3.023340327e+02	1.000000000e+00	7.880284022e-02	2.930046993e-01	9.374650935e-01
3.023491498e+02	1.000000000e+00	7.932580538e-02	2.930815798e-01	9.374650935e-01
3.023642676e+02	1.000000000e+00	7.986016004e-02	2.931584635e-01	9.374650935e-01
3.023793862e+02	1.000000000e+00	8.040560249e-02	2.932353505e-01	9.374650935e-01
3.023945055e+02	1.000000000e+00	8.096176561e-02	2.933122408e-01	9.374650935e-01
3.024096257e+02	1.000000000e+00	8.152822894e-02	2.933891343e-01	9.374650935e-01
3.024247465e+02	1.000000000e+00	8.210453095e-02	2.934660312e-01	9.374650935e-01
3.024398681e+02	1.000000000e+00	8.269018045e-02	2.935429312e-01	9.374650935e-01
3.024549905e+02	1.000000000e+00	8.328466671e-02	2.936198345e-01	9.374650935e-01
3.024701136e+02	1.000000000e+00	8.388746758e-02	2.936967411e-01	9.374650935e-01
3.024852375e+02	1.000000000e+00	8.449805552e-02	2.937736509e-01	9.374650935e-01
3.025003621e+02	1.000000000e+00	8.511590191e-02	2.938505639e-01	9.374650935e-01
3.025154875e+02	1.000000000e+00	8.574047993e-02	2.939274802e-01	9.374650935e-01
3.025306137e+02	1.000000000e+00	8.637126682e-02	2.940043997e-01	9.374650935e-01
3.025457406e+02	1.000000000e+00	8.700774614e-02	2.940813224e-01	9.374650935e-01
3.025608683e+02	1.000000000e+00	8.764941087e-02	2.941582484e-01	9.374650935e-01
3.025759967e+02	1.000000000e+00	8.829576790e-02	2.942351776e-01	9.374650935e-01
3.025911259e+02	1.000000000e+00	8.894634397e-02	2.943121099e-01	9.374650935e-01
3.026062558e+02	1.000000000e+00	8.960069334e-02	2.943890455e-01	9.374650935e-01
3.026213865e+02	1.000000000e+00	9.025840648e-02	2.944659843e-01	9.374650935e-01
3.026365179e+02	1.000000000e+00	9.091911895e-02	2.945429263e-01	9.374650935e-01
3.026516501e+02	1.000000000e+00	9.158251981e-02	2.946198715e-01	9.374650935e-01
3.026667831e+02	1.000000000e+00	9.224835769e-02	2.946968199e-01	9.374650935e-01
3.026819168e+02	1.000000000e+00	9.291644347e-02	2.947737715e-01	9.374650935e-01
3.026970513e+02	1.000000000e+00	9.358664837e-02	2.948507263e-01	9.374650935e-01
3.027121865e+02	1.000000000e+00	9.425889670e-02	2.949276842e-01	9.374650935e-01
3.027273225e+02	1.000000000e+00	9.493315286e-02	2.950046453e-01	9.374650935e-01
3.027424593e+02	1.000000000e+00	9.560940284e-02	2.950816096e-01	9.374650935e-01
3.027575968e+02	1.000000000e+00	9.628763107e-02	2.951585771e-01	9.374650935e-01
3.027727350e+02	1.000000000e+00	9.696779411e-02	2.952355477e-01	9.374650935e-01
3.027878740e+02	1.000000000e+00	9.764979314e-02	2.953125215e-01	9.374650935e-01
3.028030138e+02	1.000000000e+00	9.833344737e-02	2.953894985e-01	9.374650935e-01
3.028181543e+02	1.000000000e+00	9.901847083e-02	2.954664785e-01	9.374650935e-01
3.028332956e+02	1.000000000e+00	9.970445443e-02	2.955434618e-01	9.374650935e-01
3.028484377e+02	1.000000000e+00	1.003908553e-01	2.956204482e-01	9.374650935e-01
3.028635805e+02	1.000000000e+00	1.010769941e-01	2.956974377e-01	9.374650935e-01
3.028787240e+02	1.000000000e+00	1.017620618e-01	2.957744303e-01	9.374650935e-01
3.028938683e+02	1.000000000e+00	1.024451336e-01	2.958514261e-01	9.374650935e-01
3.029090134e+02	1.000000000e+00	1.031251908e-01	2.959284250e-01	9.374650935e-01
3.029241592e+02	1.000000000e+00	1.038011482e-01	2.960054271e-01	9.374650935e-01
3.029393058e+02	1.000000000e+00	1.044718849e-01	2.960824322e-01	9.374650935e-01
3.029544532e+02	1.000000000e+00	1.051362759e-01	2.961594405e-01	9.374650935e-01
3.029696013e+02	1.000000000e+00	1.057932228e-01	2.962364519e-01	9.374650935e-01
3.029847501e+02	1.000000000e+00	1.064416817e-01	2.963134664e-01	9.374650935e-01
3.029998998e+02	1.000000000e+00	1.070806864e-01	2.963904840e-01	9.374650935e-01
3.030150501e+02	1.000000000e+00	1.077093655e-01	2.964675046e-01	9.374650935e-01
3.030302013e+02	1.000000000e+00	1.083269546e-01	2.965445284e-01	9.374650935e-01
3.030453531e+02	1.000000000e+00	1.089328028e-01	2.966215553e-01	9.374650935e-01
3.030605058e+02	1.000000000e+00	1.095263737e-01	2.966985852e-01	9.374650935e-01
3.030756592e+02	1.000000000e+00	1.101072442e-01	2.967756183e-01	9.374650935e-01
3.030908134e+02	1.000000000e+00	1.106750999e-01	2.968526544e-01	9.374650935e-01
3.031059683e+02	1.000000000e+00	1.112297298e-01	2.969296936e-01	9.374650935e-01
3.031211240e+02	1.000000000e+00	1.117710215e-01	2.970067358e-01	9.374650935e-01
3.031362804e+02	1.000000000e+00	1.122989564e-01	2.970837811e-01	9.374650935e-01
3.031514376e+02	1.000000000e+00	1.128136072e-01	2.971608295e-01	9.374650935e-01
3.031665955e+02	1.000000000e+00	1.133151356e-01	2.972378809e-01	9.374650935e-01
3.031817542e+02	1.000000000e+00	1.138037914e-01	2.973149354e-01	9.374650935e-01
3.031969137e+02	1.000000000e+00	1.142799112e-01	2.973919930e-01	9.374650935e-01
3.032120739e+02	1.000000000e+00	1.147439165e-01	2.974690535e-01	9.374650935e-01
3.032272349e+02	1.000000000e+00	1.151963092e-01	2.975461171e-01	9.374650935e-01
3.032423967e+02	1.000000000e+00	1.156376652e-01	2.976231838e-01	9.374650935e-01
3.032575592e+02	1.000000000e+00	1.160686244e-01	2.977002535e-01	9.374650935e-01
3.032727224e+02	1.000000000e+00	1.164898763e-01	2.977773262e-01	9.374650935e-01
3.032878864e+02	1.000000000e+00	1.169021429e-01	2.978544019e-01	9.374650935e-01
3.033030512e+02	1.000000000e+00	1.173061581e-01	2.979314807e-01	9.374650935e-01
3.033182167e+02	1.000000000e+00	1.177026442e-01	2.980085624e-01	9.374650935e-01
3.033333830e+02	1.000000000e+00	1.180922877e-01	2.980856472e-01	9.374650935e-01
3.033485501e+02	1.000000000e+00	1.184757134e-01	2.981627350e-01	9.374650935e-01
3.033637179e+02	1.000000000e+00	1.188534607e-01	2.982398258e-01	9.374650935e-01
3.033788864e+02	1.000000000e+00	1.192259600e-01	2.983169196e-01	9.374650935e-01
3.033940558e+02	1.000000000e+00	1.195935132e-01	2.983940163e-01	9.374650935e-01
3.034092258e+02	1.000000000e+00	1.199562771e-01	2.984711161e-01	9.374650935e-01
3.034243967e+02	1.000000000e+00	1.203142515e-01	2.985482189e-01	9.374650935e-01
3.034395683e+02	1.000000000e+00	1.206672719e-01	2.986253246e-01	9.374650935e-01
3.034547406e+02	1.000000000e+00	1.210150076e-01	2.987024333e-01	9.374650935e-01
3.034699138e+02	1.000000000e+00	1.213569654e-01	2.987795450e-01	9.374650935e-01
3.034850876e+02	1.000000000e+00	1.216924998e-01	2.988566596e-01	9.374650935e-01
3.035002623e+02	1.000000000e+00	1.220208290e-01	2.989337773e-01	9.374650935e-01
3.035154377e+02	1.000000000e+00	1.223410573e-01	2.990108979e-01	9.374650935e-01
3.035306138e+02	1.000000000e+00	1.226522041e-01	2.990880214e-01	9.374650935e-01
3.035457907e+02	1.000000000e+00	1.229532391e-01	2.991651479e-01	9.374650935e-01
3.035609684e+02	1.000000000e+00	1.232431231e-01	2.992422773e-01	9.374650935e-01
3.035761468e+02	1.000000000e+00	1.235208530e-01	2.993194097e-01	9.374650935e-01
3.035913260e+02	1.000000000e+00	1.237855114e-01	2.993965450e-01	9.374650935e-01
3.036065060e+02	1.000000000e+00	1.240363174e-01	2.994736833e-01	9.374650935e-01
3.036216867e+02	1.000000000e+00	1.242726780e-01	2.995508245e-01	9.374650935e-01
3.036368681e+02	1.000000000e+00	1.244942368e-01	2.996279686e-01	9.374650935e-01
3.036520503e+02	1.000000000e+00	1.247009195e-01	2.997051157e-01	9.374650935e-01
3.036672333e+02	1.000000000e+00	1.248929714e-01	2.997822656e-01	9.374650935e-01
3.036824171e+02	1.000000000e+00	1.250709874e-01	2.998594185e-01	9.374650935e-01
3.036976016e+02	1.000000000e+00	1.252359308e-01	2.999365743e-01	9.374650935e-01
3.037127868e+02	1.000000000e+00	1.253891404e-01	3.000137330e-01	9.374650935e-01
3.037279728e+02	1.000000000e+00	1.255323255e-01	3.000908946e-01	9.374650935e-01
